wavelength,slope,abs_slope,intercept,r2,correlation,residual_std
500.06778058,0.004734486601525811,0.004734486601525811,0.794912044151617,0.5074563014373115,0.7123596714001372,0.017957946776164035
500.29178904,0.0032977180063631776,0.0032977180063631776,0.7888403865082895,0.30910731253539114,0.55597420132178,0.01898125411954154
500.51581108,0.0017880441137870394,0.0017880441137870394,0.783984529585296,0.1190734390968887,0.3450701944487363,0.01872411770446127
500.73984668,0.0004263869658797713,0.0004263869658797713,0.7804128369878028,0.008311710597079766,0.09116858338857617,0.017931104255990947
500.96389585,-0.001006123541675476,0.001006123541675476,0.7806055113910965,0.052261947674324835,-0.228608721780961,0.01649542099767466
501.18795858,-0.0022307783196617473,0.0022307783196617473,0.791143071752341,0.24596641140017694,-0.495950008972857,0.01503746356671779
501.41203486,-0.0033153981715190388,0.0033153981715190388,0.7856843726272594,0.45708835698439637,-0.6760830991708019,0.013911082343337934
501.6361247,-0.00433842613031157,0.00433842613031157,0.779588813533572,0.6464786010288238,-0.8040389300455693,0.01235161406335861
501.86022809,-0.00502168302821935,0.00502168302821935,0.7701327111058183,0.7593973096916797,-0.8714340535529236,0.010882426390684626
502.08434503,-0.005362258246446354,0.005362258246446354,0.7695735308695011,0.830026344941326,-0.9110578164646446,0.00934228955061163
502.30847551,-0.005592127514396674,0.005592127514396674,0.7660364467559947,0.8587886850987021,-0.9267085221895297,0.008730304408558301
502.53261954,-0.005697475413369951,0.005697475413369951,0.7646364128162001,0.8465974070346572,-0.9201072801769679,0.009337294839013351
502.75677711,-0.0054277731382512155,0.0054277731382512155,0.7656639791366928,0.8177580204750075,-0.9042997403930886,0.009864934880772324
502.98094822,-0.004967025333362386,0.004967025333362386,0.7719473207963184,0.769039762397646,-0.8769491218979845,0.010479759492122705
503.20513286,-0.004654910039395429,0.004654910039395429,0.7685332004295881,0.7079542355443396,-0.8414001637415692,0.011510518457046315
503.42933104,-0.004463600093905939,0.004463600093905939,0.7724741304524692,0.6854207844691342,-0.8279014340301231,0.011642128413004542
503.65354274,-0.00420745279958049,0.00420745279958049,0.7780548985110487,0.636505001352933,-0.7978126354934052,0.012241321150361575
503.87776797,-0.004077535574968261,0.004077535574968261,0.7890343449952157,0.645671151429155,-0.803536652200231,0.011629366391167996
504.10200673,-0.0036790306688302397,0.0036790306688302397,0.8075286948593157,0.6093183649448803,-0.7805884734896361,0.011341839624298763
504.32625901,-0.0033128318407626392,0.0033128318407626392,0.823409343450905,0.5387553307772549,-0.7339995441260538,0.011801304354976543
504.5505248,-0.00312820127127375,0.00312820127127375,0.8428753348365711,0.4612191844133556,-0.6791311982329744,0.013016906868601508
504.77480411,-0.0027817146479611338,0.0027817146479611338,0.8558934174160969,0.3638532381469225,-0.603202485196242,0.014160834436696116
504.99909694,-0.002377062047687577,0.002377062047687577,0.8741308498121414,0.2575280149264613,-0.5074721814311217,0.015539213842920447
505.22340327,-0.001975287959945826,0.001975287959945826,0.8941595361276456,0.16742537395999357,-0.4091764582182039,0.016958681849349736
505.44772312,-0.00160017338636512,0.00160017338636512,0.906699230184725,0.10144401132496732,-0.31850276501934377,0.018335262717766365
505.67205646,-0.0014345685098738927,0.0014345685098738927,0.918359727509761,0.07413925399932847,-0.2722852438148797,0.019517795029047245
505.89640331,-0.0011750788834761633,0.0011750788834761633,0.9230021093472963,0.05058630053518621,-0.22491398474791693,0.019599231312374118
506.12076366,-0.0011127059851105728,0.0011127059851105728,0.92747252973934,0.04653268110464058,-0.2157143507155715,0.019391661489950765
506.3451375,-0.0009298025183060337,0.0009298025183060337,0.9290482557583454,0.03630998800229451,-0.19055179873801903,0.018441959919691546
506.56952484,-0.0010610693410122135,0.0010610693410122135,0.931304606051664,0.053231196648017357,-0.23071886929338345,0.017228336689147385
506.79392567,-0.0012194339340257869,0.0012194339340257869,0.927327254232435,0.08079997080474419,-0.2842533567167575,0.01583501279346771
507.01833999,-0.0015333166967378667,0.0015333166967378667,0.9212637426112181,0.14112091864875823,-0.3756606429328979,0.014563404409963244
507.24276779,-0.0016512674885812905,0.0016512674885812905,0.9110189287940923,0.17480361909035766,-0.4180952272991856,0.013812796296237072
507.46720907,-0.001846668877633664,0.001846668877633664,0.8963831488675178,0.21178890087792765,-0.46020528123645826,0.01371574601212908
507.69166384,-0.0023416582031654896,0.0023416582031654896,0.8756309555718308,0.2940840185243139,-0.5422951396834697,0.013967704182399386
507.91613208,-0.002920754064791621,0.002920754064791621,0.8563194915023647,0.3591748063755494,-0.5993119441288897,0.015020091378982064
508.1406138,-0.0033525884964656564,0.0033525884964656564,0.8420451919341063,0.40842308793663873,-0.639079876022269,0.01553429133538173
508.36510898,-0.0036511584776474197,0.0036511584776474197,0.8259099871348338,0.4516926809284968,-0.6720808589213777,0.015487520995479393
508.58961764,-0.0037688704320908706,0.0037688704320908706,0.8100688888477624,0.4800805389971033,-0.6928784446041768,0.015100207772191595
508.81413976,-0.003906072238284152,0.003906072238284152,0.8002753063367178,0.52537984738932,-0.7248309095156745,0.014293460394041968
509.03867534,-0.004141686361551202,0.004141686361551202,0.7958276597597604,0.5853347980104447,-0.765071760039831,0.013420990267151397
509.26322439,-0.004161813318273161,0.004161813318273161,0.788318169770466,0.5892688513477667,-0.767638490011911,0.013377205617534036
509.48778689,-0.004313536681158433,0.004313536681158433,0.7810554720745823,0.6007704806427119,-0.7750938527963642,0.013537898554697968
509.71236285,-0.004263838909622267,0.004263838909622267,0.7711081467787754,0.5817704107716015,-0.7627387565684607,0.013918520746764165
509.93695226,-0.0040748091733389434,0.0040748091733389434,0.7552812599168636,0.5635236681654884,-0.7506821352380036,0.013806775825908587
510.16155512,-0.0038515266689589703,0.0038515266689589703,0.7420267600844868,0.5069851954622596,-0.7120289288099604,0.014622646476503501
510.38617142,-0.003456280062093662,0.003456280062093662,0.7391086391493987,0.44870983322132285,-0.6698580694604812,0.014749489368797422
510.61080117,-0.003134663632630498,0.003134663632630498,0.7350908636588949,0.3864164508323774,-0.621624042997355,0.01520760153844642
510.83544436,-0.0029774681860000735,0.0029774681860000735,0.7339514366581393,0.38524567785991903,-0.6206816235880671,0.014480707033484636
511.06010099,-0.0029587473400436624,0.0029587473400436624,0.7415610428035556,0.4051757747739659,-0.6365341897918492,0.01380197378478882
511.28477105,-0.0029124907710697304,0.0029124907710697304,0.7465379628669986,0.4157754554969436,-0.6448065256314824,0.013291860134164894
511.50945454,-0.0029511426971994786,0.0029511426971994786,0.7556766747365012,0.4400870830739553,-0.6633905961603279,0.012815686392167997
511.73415147,-0.0028609919414016504,0.0028609919414016504,0.7696409929279981,0.440301694777805,-0.6635523300974875,0.012418787086551638
511.95886182,-0.002920708555144702,0.002920708555144702,0.7770482528710136,0.4515653445199957,-0.6719861192911619,0.01239227650137446
512.1835856,-0.002890399565257368,0.002890399565257368,0.7773327222466008,0.45645341021030866,-0.6756133585197296,0.01214335726366971
512.4083228,-0.0026930254207819205,0.0026930254207819205,0.7740579683240072,0.4013755124527873,-0.6335420368474276,0.012662019705510771
512.63307341,-0.0024658760866590316,0.0024658760866590316,0.780539062631155,0.3444125111990002,-0.5868666894610736,0.013098086291307078
512.85783745,-0.0022461745134506445,0.0022461745134506445,0.7828454128621491,0.2889544180343049,-0.5375448056062907,0.013565577169810777
513.08261489,-0.002112558260789654,0.002112558260789654,0.7787603923385344,0.2654621171678999,-0.5152301594121795,0.01352929750761774
513.30740575,-0.0021708182166818336,0.0021708182166818336,0.7837669083185542,0.2695925687754323,-0.5192230433786932,0.01375665418095928
513.53221001,-0.0019087966162202967,0.0019087966162202967,0.7854607591623941,0.21025322483933268,-0.45853377720657906,0.014242721547906217
513.75702768,-0.0015827874104692844,0.0015827874104692844,0.7730072837617336,0.14966848289822968,-0.38687011114614384,0.014524870754095703
513.98185875,-0.0012356732564284734,0.0012356732564284734,0.7634799788244997,0.09119637492507161,-0.3019873754398876,0.015017948633227158
514.20670322,-0.0004049731270145871,0.0004049731270145871,0.7528289927819224,0.010140332158496943,-0.1006992162754852,0.015404501862720346
514.43156109,-0.00011899159614452816,0.00011899159614452816,0.7449256338119168,0.0009000502841163998,-0.030000838056901007,0.015263288092789694
514.65643235,0.0004647835758672463,0.0004647835758672463,0.7482670140380457,0.012903790880405372,0.11359485411058624,0.01565065746061539
514.881317,0.00047392007039602594,0.00047392007039602594,0.7588318661173562,0.013643123718742541,0.11680378298129963,0.015514077636200291
515.10621504,0.0001528861418462254,0.0001528861418462254,0.7693550272095987,0.001364991999753143,0.03694579813393051,0.015920884472442567
515.33112647,-0.00027792086289658087,0.00027792086289658087,0.7904256935624177,0.003957696441299885,-0.06291022525233783,0.01697459928664803
515.55605128,-0.0006295816580803725,0.0006295816580803725,0.8145744801162756,0.01820695855134984,-0.13493316327482224,0.017799346993562358
515.78098946,-0.0010052585508110836,0.0010052585508110836,0.8390392899061597,0.042533737811206354,-0.20623709125956552,0.018362570261320293
516.00594103,-0.00133238909937959,0.00133238909937959,0.8695132452222023,0.07011308711775113,-0.2647887594248501,0.018681309833217745
516.23090597,-0.0015419368966891073,0.0015419368966891073,0.8967733394940783,0.09439708945291791,-0.30724109336629746,0.018387256441441572
516.45588428,-0.0016928067774095432,0.0016928067774095432,0.9194420223960855,0.12036960444262403,-0.3469432294232358,0.01761813023183951
516.68087596,-0.001622706968404445,0.001622706968404445,0.9382596105787683,0.12798417565120979,-0.35774876051666454,0.01630740570514299
516.905881,-0.0016141617951562432,0.0016141617951562432,0.9564359795566363,0.1511029577199685,-0.3887196389687155,0.014729866847612958
517.13089941,-0.0016356070605985998,0.0016356070605985998,0.9797508733990055,0.18432552918953288,-0.42933149102940593,0.013246629708810484
517.35593118,-0.00158637018831471,0.00158637018831471,0.9922009363050626,0.22000503511796937,-0.46904694340542225,0.01149992104861116
517.58097631,-0.001475864179037136,0.001475864179037136,0.9977431437724121,0.273466377576644,-0.5229401280994259,0.009261535831084276
517.80603479,-0.001280732944484187,0.001280732944484187,1.0088463582557012,0.33955619708119944,-0.58271450735433,0.006876721161291364
518.03110663,-0.000830235417595754,0.000830235417595754,1.009994674871996,0.32025175491315205,-0.5659079032078913,0.004656828821880899
518.25619181,-0.0005217346426773966,0.0005217346426773966,1.0053628242670611,0.3787800197166997,-0.6154510701239374,0.002572406394638026
518.48129034,-0.00014798588844759937,0.00014798588844759937,1.0055338004274248,0.09514828095837127,-0.30846114983636314,0.0017569899139617386
518.70640222,0.00024513268458312284,0.00024513268458312284,1.0027848115344729,0.23024780425095812,0.47984143657145545,0.0017255981660585997
518.93152743,0.00017383850205590542,0.00017383850205590542,1.001172859666302,0.24798360970647879,0.49797952739693907,0.0011654908410138926
519.15666598,0.00044205537743029384,0.00044205537743029384,1.0023901675556512,0.3804282201142474,0.61678863487766,0.002171935175540606
519.38181787,0.00014985490890447227,0.00014985490890447227,1.0002841290054105,0.1988071510168727,0.4458779552936798,0.0011582017980657268
519.6069831,1.7058504940819065e-05,1.7058504940819065e-05,1.0000878513004299,0.014778763658946033,0.121567938449848,0.0005362280465887769
519.83216165,2.627973345129502e-06,2.627973345129502e-06,1.0000639424099707,0.0019074087855974417,0.04367389134937991,0.00023144361925006473
520.05735353,1.1679881533904398e-06,1.1679881533904398e-06,1.0000284188488675,0.0019074087855958626,0.04367389134936184,0.00010286383077779334
520.28255873,-1.3831438658651055e-07,1.3831438658651055e-07,0.9999966346099853,0.0019074087856056786,-0.04367389134947421,1.2181243118464756e-05
520.50777726,8.02756695047158e-06,8.02756695047158e-06,1.000016579974635,0.020918917973956036,0.14463373732969786,0.00021143865469415096
520.7330091,1.8516845888648714e-06,1.8516845888648714e-06,0.9999656131128012,0.006442895239367467,0.08026764752605789,8.852860550001534e-05
520.95825426,-4.653834311372031e-07,4.653834311372031e-07,0.9999374670013916,9.747766205783466e-05,-0.009873077638600573,0.00018146711154222204
521.18351273,-4.965695495145586e-06,4.965695495145586e-06,0.9999010250397203,0.002100450519368538,-0.04583067225525432,0.0004167043168173454
521.40878452,-7.1598606333272635e-06,7.1598606333272635e-06,0.9999044696443211,0.003188981200974443,-0.05647106516592761,0.00048735534539482057
521.63406961,-1.54864994549016e-05,1.54864994549016e-05,0.9998402944501783,0.005996607503368058,-0.07743776535623983,0.0007676356089022326
521.85936801,-2.25425337499332e-05,2.25425337499332e-05,0.9997870763430486,0.0073714442752138174,-0.08585711546059428,0.0010071184381427573
522.08467971,-2.832796351842795e-05,2.832796351842795e-05,0.9997448153229325,0.008198123530595434,-0.0905434897195565,0.0011995858043168403
522.31000471,-3.284278876037863e-05,3.284278876037863e-05,0.9997135113898294,0.008780882838885052,-0.09370636498597655,0.0013434345093206429
522.535343,-3.400118434162511e-05,3.400118434162511e-05,0.9998148185845118,0.007437685255978406,-0.08624201560711812,0.0015122192676850332
522.76069459,-8.823749337562446e-06,8.823749337562446e-06,1.000847047183476,0.00036822636031768246,-0.01918922510988087,0.0017700130979922133
522.98605947,-1.7506252291816993e-05,1.7506252291816993e-05,1.0002471658064584,0.001706189403694676,-0.04130604560708609,0.0016303073314481757
523.21143764,-3.6806201878086066e-05,3.6806201878086066e-05,0.9996131706092848,0.009714115984893868,-0.09856021502053386,0.0014307389002223727
523.4368291,0.00010100816588091624,0.00010100816588091624,0.9990588698185379,0.055578397707848996,0.23575071093816238,0.0016030503372788663
523.66223383,0.00014049792686936816,0.00014049792686936816,0.9991712160732739,0.08153491373274835,0.28554319066079714,0.00181547454309098
523.88765185,-2.053968838041515e-05,2.053968838041515e-05,0.9984877990595494,0.001508116530233976,-0.03883447605200791,0.002034742232416355
524.11308315,-0.00016912951078220946,0.00016912951078220946,0.9981992251503552,0.06644996357979566,-0.2577789044506855,0.0024406277710218123
524.33852772,-0.00026855435059174336,0.00026855435059174336,0.9988445509041176,0.1151224394835781,-0.33929697830009936,0.0028665169948787522
524.56398556,-0.00039239449738602013,0.00039239449738602013,0.9978821463518668,0.1719320435811798,-0.4146468902345462,0.0033154174200913794
524.78945667,-0.00046886694297950554,0.00046886694297950554,0.9967373108490937,0.17472062151800327,-0.41799595873405676,0.003923184724792263
525.01494104,-0.000542140535700791,0.000542140535700791,0.9960393178906577,0.18557809905380954,-0.430787765673318,0.004372541813000938
525.24043868,-0.0005844153932427238,0.0005844153932427238,0.995136004983226,0.1720728014964875,-0.41481658777884894,0.004935399767614463
525.46594959,-0.0006021100565516936,0.0006021100565516936,0.9945375606379733,0.15581765183990312,-0.3947374467160458,0.0053956828702582315
525.69147374,-0.0006015285799040749,0.0006015285799040749,0.9941069223330434,0.14148084654570675,-0.37613939775794125,0.0057048360178203255
525.91701116,-0.000583003171081814,0.000583003171081814,0.9939084402356224,0.1279157365921705,-0.3576530953202705,0.005860691799029647
526.14256182,-0.0005485195874387448,0.0005485195874387448,0.9940722126914717,0.11824494799330701,-0.343867631499836,0.0057668087827858604
526.36812574,-0.000471738526291686,0.000471738526291686,0.9944435451874494,0.10305679198368808,-0.3210245971630337,0.005358043542421864
526.5937029,-0.00037511895917591726,0.00037511895917591726,0.9949552478487512,0.07676689828694819,-0.2770684000151374,0.005008393359981901
526.81929331,-0.00031518781440307496,0.00031518781440307496,0.9953449187334082,0.061140006260015596,-0.2472650526459726,0.004755189464676487
527.04489696,-0.0002229672357143217,0.0002229672357143217,0.9961133692089578,0.037775723420856916,-0.19435977830008172,0.004332449797722218
527.27051384,-0.0001480623693732196,0.0001480623693732196,0.9966880426409769,0.017089831743763887,-0.13072808322531118,0.004323081717407428
527.49614396,-9.327529976016813e-05,9.327529976016813e-05,0.9958701802277897,0.006887182232481355,-0.08298904887080798,0.004312269446230296
527.72178732,-2.5054184206930323e-06,2.5054184206930323e-06,0.9962514035320263,4.863387491196213e-06,-0.002205308933278105,0.004373916650998126
527.9474439,0.00011865726498045861,0.00011865726498045861,0.9969161931447287,0.011354101540743712,0.10655562650908544,0.0042628402799491346
528.17311372,0.00016847684090802743,0.00016847684090802743,0.9982738923685927,0.02763777115739045,0.1662461162174637,0.003847365727690552
528.39879675,-3.5364857917960355e-05,3.5364857917960355e-05,0.9982219293999152,0.0013400885716035422,-0.03660722021136735,0.003716847166579395
528.62449301,5.5551862179126376e-05,5.5551862179126376e-05,1.0007870385651976,0.004376661139332012,0.06615633861794357,0.003225785044132072
528.85020249,-2.5225186810840092e-05,2.5225186810840092e-05,1.0020967528430826,0.0010062532479802168,-0.03172149504642265,0.003060010086180261
529.07592518,-0.00021039880785239795,0.00021039880785239795,0.9994910761712723,0.05371448557714975,-0.23176385735733204,0.0033999254141808665
529.30166109,-0.0004722843145897126,0.0004722843145897126,0.9987090802730183,0.17133940651364588,-0.4139316447357533,0.003998747355164302
529.52741021,-0.0007808595929434635,0.0007808595929434635,0.9987733892368831,0.31356835170909514,-0.5599717418844411,0.004448014735454134
529.75317254,-0.0010998189739228478,0.0010998189739228478,0.9981456742646967,0.3965933154723414,-0.6297565525441886,0.005222931149035064
529.97894807,-0.0012845218972824264,0.0012845218972824264,0.9964205972820719,0.37963870118739906,-0.61614827857213,0.0063217795959806256
530.2047368,-0.0012042602195559357,0.0012042602195559357,0.9909042207945317,0.26516154411200904,-0.5149383886563605,0.007718301479865555
530.43053874,-0.0011410263790467131,0.0011410263790467131,0.98654085733698,0.19808071180970774,-0.44506259313686175,0.008838949448734531
530.65635387,-0.0009941940011267704,0.0009941940011267704,0.982509179709705,0.12654916863288568,-0.35573749961577805,0.010055911693026337
530.88218219,-0.0007266281028507564,0.0007266281028507564,0.9793640315930245,0.05663806123246349,-0.23798752327057712,0.01141715522579896
531.10802371,-0.0005064789191352139,0.0005064789191352139,0.9761105670756237,0.02194717470344439,-0.14814578867940995,0.013017091236666741
531.33387841,-0.00024563040928302906,0.00024563040928302906,0.971401831499676,0.003981167669266991,-0.06309649490476464,0.014957926749161347
531.5597463,7.689715583465135e-05,7.689715583465135e-05,0.9682788057943706,0.00032274263628446516,0.017965039278678607,0.01647679511767514
531.78562738,0.00034137409765615484,0.00034137409765615484,0.9652101841476789,0.0052975140866784245,0.07278402356752768,0.01800950749044908
532.01152163,0.0005169490981310694,0.0005169490981310694,0.9649639204327182,0.011195507864830251,0.105808826970297,0.018704315832871826
532.23742906,0.0006583335583287066,0.0006583335583287066,0.9667289424419758,0.017827160780688134,0.13351839117023592,0.018813066582979706
