wavelength,slope,abs_slope,intercept,r2,correlation,residual_std
500.06778058,-0.00027692715530858484,0.00027692715530858484,0.6982580162901926,0.0019431540252149932,-0.0440812207772765,0.024162969165354552
500.29178904,-0.0008932036841534625,0.0008932036841534625,0.69797030871289,0.020079378280820532,-0.1417017229282006,0.024023238504466974
500.51581108,-0.0016102095513952702,0.0016102095513952702,0.7007314764827546,0.06551350541103901,-0.25595606148524597,0.023413385925968182
500.73984668,-0.0023341792723515884,0.0023341792723515884,0.6942141192251764,0.12831257939747584,-0.35820745301776713,0.023422902429413747
500.96389585,-0.002851046562676476,0.002851046562676476,0.6920575515891034,0.1824546769868195,-0.42714713739743065,0.0232350418294095
501.18795858,-0.00317959640448069,0.00317959640448069,0.6923345087679489,0.21725480882964546,-0.4661060060004006,0.02323583221264093
501.41203486,-0.0036461288153288077,0.0036461288153288077,0.6906833104968982,0.2704445946391796,-0.5200428776929644,0.023055934219118467
501.6361247,-0.0039019908352092274,0.0039019908352092274,0.681003500571941,0.29875054346250723,-0.54658077487459,0.02301594925545579
501.86022809,-0.004034829252379603,0.004034829252379603,0.6752395071124828,0.31308158716112017,-0.5595369399433072,0.023009633741518258
502.08434503,-0.00403634215022077,0.00403634215022077,0.6692441694942147,0.33391781738714293,-0.5778562255329114,0.02194789199900236
502.30847551,-0.003802355877186421,0.003802355877186421,0.657486562551467,0.3101166938371052,-0.5568812205821859,0.02183427302402667
502.53261954,-0.0035316058655062692,0.0035316058655062692,0.6515482255139783,0.27823403707096095,-0.5274789446707432,0.021899088021451518
502.75677711,-0.0031776252039429765,0.0031776252039429765,0.6513765096533122,0.2374762722500228,-0.48731537247456375,0.021921989766656685
502.98094822,-0.002793733256047079,0.002793733256047079,0.6521626099548211,0.20176759212325113,-0.44918547630489025,0.021393637832984157
503.20513286,-0.002492970497254491,0.002492970497254491,0.661585503140849,0.1657665040898696,-0.40714432832825953,0.021531450657547784
503.42933104,-0.002250435615525734,0.002250435615525734,0.671249556893695,0.1274147564824388,-0.35695203666940856,0.022673647460369005
503.65354274,-0.001951505647572653,0.001951505647572653,0.6844441082499869,0.09658500611733925,-0.31078128340899047,0.022978376086221997
503.87776797,-0.0016778290847476768,0.0016778290847476768,0.7000786881830537,0.06714904560124647,-0.25913132886867707,0.024076572188294253
504.10200673,-0.0015458893314409224,0.0015458893314409224,0.7227035089227607,0.05951034818384519,-0.24394742913965128,0.023660280803758888
504.32625901,-0.0014026904747371602,0.0014026904747371602,0.7402284069043762,0.04794755582154852,-0.21896930337731935,0.024064108484702192
504.5505248,-0.001400418150776584,0.001400418150776584,0.7528513300670996,0.04327276307951389,-0.2080210640284149,0.02535159078602783
504.77480411,-0.0015212745160032685,0.0015212745160032685,0.7736459758596461,0.045739748850829896,-0.21386853169840087,0.026751913336756486
504.99909694,-0.001790175829190374,0.001790175829190374,0.7975212631019828,0.05448605582986979,-0.23342248355689688,0.028710959201461557
505.22340327,-0.001990675497748226,0.001990675497748226,0.810245374200378,0.05944795448585432,-0.24381951211060676,0.03048485675841261
505.44772312,-0.0021670852402740533,0.0021670852402740533,0.8214172781200686,0.06242915221350452,-0.2498582642489628,0.03233292930644595
505.67205646,-0.0024378533733488902,0.0024378533733488902,0.8367082101294832,0.07235151507343689,-0.2689823694472128,0.03360750063045817
505.89640331,-0.002637950760400811,0.002637950760400811,0.8550073083196643,0.08260732386851694,-0.28741489848043184,0.03384509770168892
506.12076366,-0.002742264735432112,0.002742264735432112,0.8604691977669264,0.08842066743102163,-0.2973561289615898,0.03389927804122912
506.3451375,-0.002808370672147408,0.002808370672147408,0.8645459947829044,0.09711168104843255,-0.31162747158816495,0.03296829136723585
506.56952484,-0.0028115582725465236,0.0028115582725465236,0.8670504503581304,0.10488037474562795,-0.3238523965414305,0.031622867106022745
506.79392567,-0.0028042653834737777,0.0028042653834737777,0.8686704844334243,0.10694683803680784,-0.327027274148209,0.031198558068025677
507.01833999,-0.0028907503110869063,0.0028907503110869063,0.8673551869379639,0.11648106032229748,-0.3412932175158151,0.03065148956947963
507.24276779,-0.002916316774345691,0.002916316774345691,0.8618842620581945,0.12959311841115947,-0.35999044211084197,0.029098165733064695
507.46720907,-0.002976127131420356,0.002976127131420356,0.8549744436988496,0.15087126245287327,-0.3884215010177388,0.027182895524972883
507.69166384,-0.003124683196918789,0.003124683196918789,0.8469896007976584,0.17408216788238207,-0.4172315518778297,0.026203421313926493
507.91613208,-0.0031043963447929084,0.0031043963447929084,0.8367454167821506,0.18249927631971063,-0.42719934026132417,0.02529597320101848
508.1406138,-0.0027912389260137203,0.0027912389260137203,0.8265266595941275,0.17159464284903644,-0.4142398373515474,0.023611703954744465
508.36510898,-0.002586916360547742,0.002586916360547742,0.812022957525915,0.16610166540511145,-0.4075557206138953,0.02231581111283533
508.58961764,-0.0023939531211110035,0.0023939531211110035,0.7923848570321252,0.15242062004729065,-0.39041083495119683,0.021734252114102463
508.81413976,-0.002259663568330306,0.002259663568330306,0.7727833136661687,0.14461831429398492,-0.38028714715854506,0.02115791360692954
509.03867534,-0.0021356603898501072,0.0021356603898501072,0.7597852554271565,0.1443002234868358,-0.37986869242783855,0.020022584252417246
509.26322439,-0.001778342407225785,0.001778342407225785,0.7437241129539294,0.11384774961778778,-0.33741332163651716,0.019101525897594188
509.48778689,-0.0014395857583093434,0.0014395857583093434,0.7291852967007337,0.08349737210124081,-0.2889591183908907,0.018362369602847043
509.71236285,-0.001068263424845963,0.001068263424845963,0.7112920213089808,0.051760490223268646,-0.22750931898115437,0.017603495832735405
509.93695226,-0.0008661592975829022,0.0008661592975829022,0.6982270172840676,0.04101730041357805,-0.20252728313384855,0.016124280720264353
510.16155512,-0.0006865014892058848,0.0006865014892058848,0.6955115884718905,0.031238187222268295,-0.17674328055761637,0.014718644200207
510.38617142,-0.00041129039013825067,0.00041129039013825067,0.696063648557681,0.01290606010734326,-0.11360484191856991,0.013848147889713445
510.61080117,-0.000319871633540641,0.000319871633540641,0.6951529636241469,0.009129362838846005,-0.09554769928599016,0.012829942298717423
510.83544436,-0.0003236221771403456,0.0003236221771403456,0.7040620671470647,0.010881143007286235,-0.10431271738041453,0.011879166963329432
511.06010099,-0.0004657879048237607,0.0004657879048237607,0.7143138395217757,0.02397411402118533,-0.15483576467078053,0.011442168032863104
511.28477105,-0.0005822351628548203,0.0005822351628548203,0.723755859444472,0.032519805886776505,-0.18033248705315552,0.012226614771218199
511.50945454,-0.0007619960905966812,0.0007619960905966812,0.7346962965817753,0.04315218547995466,-0.2077310412046179,0.01381444715525035
511.73415147,-0.0010069704307070094,0.0010069704307070094,0.7495243309121238,0.05739218374963334,-0.23956665825951937,0.01571146169039195
511.95886182,-0.0012179184033554605,0.0012179184033554605,0.7641764118588786,0.06668059824022539,-0.25822586671405595,0.017542614735398993
512.1835856,-0.001513742654071078,0.001513742654071078,0.7734263784069635,0.08741454436639247,-0.2956595074852024,0.01883032000118855
512.4083228,-0.0015415723005692157,0.0015415723005692157,0.7780519819272458,0.08150846107019136,-0.2854968670059119,0.019923281028011833
512.63307341,-0.0015431682937388075,0.0015431682937388075,0.7814774403474358,0.07797606715756887,-0.27924195092709275,0.020429815973670048
512.85783745,-0.0016099924170225508,0.0016099924170225508,0.7791687214689468,0.08075084382642694,-0.28416692950874306,0.02091354452615181
513.08261489,-0.0015686909608806474,0.0015686909608806474,0.7709843693148518,0.07817392761098309,-0.27959600785952415,0.02073918334778574
513.30740575,-0.0016173479284726528,0.0016173479284726528,0.7629385202968555,0.08030014880546131,-0.28337280886750815,0.021073131109825696
513.53221001,-0.001425401585275378,0.001425401585275378,0.7501025849831633,0.0641762922337283,-0.2533304013215317,0.0209559656289271
513.75702768,-0.001234284632464995,0.001234284632464995,0.7290741845028984,0.05017272207639856,-0.22399268308674405,0.020675905487909044
513.98185875,-0.0011923053069592129,0.0011923053069592129,0.7152624998080191,0.04817912973812909,-0.219497448135802,0.020403108665277628
514.20670322,-0.0013043624984580813,0.0013043624984580813,0.6953396931586107,0.06101185946909285,-0.24700578833114994,0.019700713552043284
514.43156109,-0.001413865978951383,0.001413865978951383,0.6744358354726948,0.06967183178541199,-0.26395422289747894,0.019891083694046314
514.65643235,-0.0015363185217944185,0.0015363185217944185,0.668502197485868,0.08364186501850768,-0.28920903343171644,0.01957774924790123
514.881317,-0.0016655374931951984,0.0016655374931951984,0.6708788154544543,0.1041407299270606,-0.32270842865822486,0.01880722544095856
515.10621504,-0.0019553741335202627,0.0019553741335202627,0.6747052275813535,0.11990273869566145,-0.34626974845582664,0.020395829776326858
515.33112647,-0.0022857567973601123,0.0022857567973601123,0.6866346643611478,0.13354913439822377,-0.36544374997832946,0.02241517741711322
515.55605128,-0.002758006879550533,0.002758006879550533,0.7031162921552379,0.15744325943115137,-0.39679120382280575,0.02456369053528534
515.78098946,-0.003287256858895827,0.003287256858895827,0.7247799576300151,0.16760220834869158,-0.40939248692262487,0.028204601049735004
516.00594103,-0.003916336614082925,0.003916336614082925,0.7532615916697224,0.1869850361627266,-0.432417664027184,0.031440293064296035
516.23090597,-0.004553361093425456,0.004553361093425456,0.7852012473066192,0.20006929649459798,-0.44729106462637724,0.03505328973959224
516.45588428,-0.004862851285915056,0.004862851285915056,0.8172152753375391,0.20312612329134183,-0.45069515561113127,0.037082040406518454
516.68087596,-0.005020548765430015,0.005020548765430015,0.8458674843025243,0.20434781533759566,-0.45204846569543367,0.038140690351750904
516.905881,-0.005063108052648029,0.005063108052648029,0.8743992781808526,0.20246013515945752,-0.44995570355253584,0.03868872024996435
517.13089941,-0.005012902920643635,0.005012902920643635,0.9042598889100123,0.20445101473782928,-0.45216259767679734,0.038070523746623786
517.35593118,-0.004757647934780503,0.004757647934780503,0.9296907027719031,0.2015511072838297,-0.4489444367444926,0.03645725768668077
517.58097631,-0.0044160518369761185,0.0044160518369761185,0.9502781323689303,0.19260123378381758,-0.4388635708096738,0.03481043099739714
517.80603479,-0.0040003303814323075,0.0040003303814323075,0.9668317279340123,0.18677159878455168,-0.43217079816266124,0.03213715597760397
518.03110663,-0.0034117632376815025,0.0034117632376815025,0.9772525986828228,0.175775605120651,-0.4192560138157245,0.028443500683054124
518.25619181,-0.0028059018599731955,0.0028059018599731955,0.9868074860370561,0.1614262753407618,-0.40177888862004907,0.024621625342436587
518.48129034,-0.0022523185806218645,0.0022523185806218645,0.9954850384215486,0.15670501141895743,-0.3958598380979781,0.020115872122109725
518.70640222,-0.0017241062663812582,0.0017241062663812582,0.993799964684453,0.1603768043124145,-0.40047072840897435,0.015187846393798134
518.93152743,-0.001150974107059645,0.001150974107059645,0.994116611018672,0.12708676115313658,-0.3564923016744353,0.011613461040647349
519.15666598,-0.0006629993470454117,0.0006629993470454117,1.001203638855891,0.10233854759257649,-0.31990396620325995,0.007559803265191689
519.38181787,-0.0002574177016800213,0.0002574177016800213,1.0034291183962225,0.052764982272785574,-0.22970629567511983,0.004199089313752927
519.6069831,-4.55866843795975e-05,4.55866843795975e-05,1.0023719004214993,0.005158634992279067,-0.07182363811642423,0.002437295873222723
519.83216165,3.404663854456076e-05,3.404663854456076e-05,1.0036120924108782,0.002546801154076153,0.05046584145812049,0.002594082084381479
520.05735353,-1.2234429678152093e-05,1.2234429678152093e-05,1.0034976880321231,0.00034650903801307473,-0.018614753235352725,0.0025299498858785945
520.28255873,-3.7854099191479094e-05,3.7854099191479094e-05,1.001501537653532,0.007072219050791711,-0.08409648655438413,0.001726850037537859
520.50777726,-6.996971964334869e-05,6.996971964334869e-05,1.0009752580249236,0.03314496963977692,-0.18205759978582856,0.0014549321177361925
520.7330091,-4.03149798330487e-05,4.03149798330487e-05,1.000183849203467,0.0282057363386903,-0.16794563506888263,0.0009110571504248817
520.95825426,-6.82228366787456e-05,6.82228366787456e-05,1.0004427364882893,0.06027703832128062,-0.24551382511231545,0.0010370852784787026
521.18351273,-8.642039232242317e-05,8.642039232242317e-05,1.0001599517661899,0.1341755983866384,-0.366299874947615,0.0008451914661601763
521.40878452,-0.0001385489573371423,0.0001385489573371423,1.0004460217737905,0.3232576042381782,-0.5685574766355449,0.0007717938411408138
521.63406961,-0.0003164787690938687,0.0003164787690938687,1.0004645642494934,0.5767439152778847,-0.7594365775217077,0.001043795462831838
521.85936801,-0.000458996602606057,0.000458996602606057,1.0004629029525165,0.5832358728500122,-0.7636988102976279,0.0014938027393481973
522.08467971,-0.0005980873306522875,0.0005980873306522875,1.0004790941356816,0.5710464815254451,-0.7556761750415618,0.0019956975287626017
522.31000471,-0.0006943650043571832,0.0006943650043571832,1.0004662755951466,0.5599970325530037,-0.7483294946432378,0.002369646120219067
522.535343,-0.0006919140942519646,0.0006919140942519646,1.000519711696639,0.5168332187031172,-0.7189111340792527,0.002575646345052386
522.76069459,-0.0007652446381516014,0.0007652446381516014,1.0004335649888216,0.5257167864252812,-0.7250632982197356,0.002798362546076338
522.98605947,-0.0008041397700677169,0.0008041397700677169,1.0003378380725392,0.5240917126529663,-0.7239417881659866,0.0029501918472173904
523.21143764,-0.000785046994616064,0.000785046994616064,1.0002045077092712,0.5109879283291906,-0.7148341963904571,0.002956724464338014
523.4368291,-0.0007681560222229675,0.0007681560222229675,1.0001051888419026,0.5001107434080247,-0.7071850842657986,0.0029567457328204677
523.66223383,-0.0005987883488515227,0.0005987883488515227,0.9999443133065475,0.45271264558087215,-0.6728392420042637,0.0025347227609694824
523.88765185,-0.0006223945491655358,0.0006223945491655358,0.9999952395590183,0.476586860211587,-0.690352707108176,0.002511179679050634
524.11308315,-0.000714626779719828,0.000714626779719828,1.0008369468644494,0.5226023175263299,-0.722912385788437,0.002629629140920633
524.33852772,-0.000682890372345934,0.000682890372345934,1.0022621716314628,0.517948338369472,-0.7196862777415393,0.002536385661780678
524.56398556,-0.0006437564306942474,0.0006437564306942474,1.0006859950138238,0.5073374200996511,-0.7122762245783942,0.002442354216385934
524.78945667,-0.0005647833719040793,0.0005647833719040793,0.9992601459442849,0.3620422620952692,-0.6016994782241956,0.002886416186234301
525.01494104,-0.0004957192953893206,0.0004957192953893206,0.9980455470854073,0.23719505973338306,-0.4870267546381647,0.0034225553638486065
525.24043868,-0.0004092851335085202,0.0004092851335085202,0.9970206059681885,0.13937578646715104,-0.37333066638993245,0.00391561347486355
525.46594959,-0.0004194833551695853,0.0004194833551695853,0.9963158081200612,0.11231481508457106,-0.33513402555480853,0.004540319605974579
525.69147374,-0.00029983683669529995,0.00029983683669529995,0.9956631201859782,0.05357455734834541,-0.2314617837750876,0.004851875235771314
525.91701116,-0.00028126087617445756,0.00028126087617445756,0.9952843399407513,0.042819443590118696,-0.20692859539009753,0.0051197231733921605
526.14256182,-0.00031638491322011255,0.00031638491322011255,0.9947948195373749,0.04729039675960905,-0.21746355271541262,0.005467267056434431
526.36812574,-0.00012154008959458543,0.00012154008959458543,0.9948549071970543,0.007403559368881926,-0.08604393859466178,0.005418091770656808
526.5937029,-6.987283428608646e-05,6.987283428608646e-05,0.9947571275368989,0.002532177309415782,-0.05032074432493802,0.005339142111119746
526.81929331,-1.710593442975135e-05,1.710593442975135e-05,0.9949584883414496,0.00017394714343034766,-0.013188902282993367,0.004992994716332091
527.04489696,-0.0001341412179055467,0.0001341412179055467,0.9950076894377319,0.011647732409764341,-0.10792466080449056,0.004757273977636457
527.27051384,-0.0004326126307375721,0.0004326126307375721,0.9952021285484404,0.09758182230720493,-0.31238089299316135,0.005064999187049559
527.49614396,-0.0006339205948738601,0.0006339205948738601,0.9956620730282038,0.17141148692754946,-0.4140187035962862,0.005365931001156068
527.72178732,-0.0007747346067556038,0.0007747346067556038,0.9962636719111405,0.22120680029420295,-0.4703262700447456,0.005596616182715677
527.9474439,-0.0008769253043531387,0.0008769253043531387,0.9973459637467913,0.2618556458183818,-0.5117183266391597,0.0056684329227859554
528.17311372,-0.001025820000244872,0.001025820000244872,0.9985461924607945,0.2957434809690613,-0.5438230235739024,0.006094523267441338
528.39879675,-0.0013843321801028014,0.0013843321801028014,1.002152145440962,0.39438589341639785,-0.6280015074953227,0.006604475739101668
528.62449301,-0.001655584589245105,0.001655584589245105,1.0051222348298714,0.4204965232361849,-0.6484570326831107,0.007482710154313927
528.85020249,-0.0018444233930723136,0.0018444233930723136,1.0054106141981554,0.4034559406949429,-0.6351818170374077,0.008634646384414309
529.07592518,-0.0020099190325758337,0.0020099190325758337,1.0016724809513542,0.36827561088604677,-0.6068571585521974,0.010134833889164953
529.30166109,-0.002218922514240574,0.002218922514240574,0.9989387232849559,0.3561039075069318,-0.5967444239428902,0.011487417130679299
529.52741021,-0.0023371597050892835,0.0023371597050892835,0.995654772662885,0.3392742554254145,-0.5824725361984155,0.01255695335617488
529.75317254,-0.0024306082129390122,0.0024306082129390122,0.9923935873800904,0.32825598557941854,-0.5729362840486004,0.013386630196156652
529.97894807,-0.0023454437815332518,0.0023454437815332518,0.989107262021203,0.3034733742323766,-0.5508841749699991,0.013680259065758088
530.2047368,-0.0021883460979841905,0.0021883460979841905,0.9850640300197111,0.2748699950067372,-0.5242804545343429,0.013684250297399213
530.43053874,-0.0020768049861781736,0.0020768049861781736,0.9799889620947869,0.24723944807402237,-0.4972317850600687,0.013951663424372887
530.65635387,-0.0019634909655328195,0.0019634909655328195,0.9760933605974949,0.22083541185496924,-0.4699312841841552,0.014199396360697954
530.88218219,-0.001958324358690084,0.001958324358690084,0.9757717152033646,0.20838208309816117,-0.45648886415570006,0.0146951145380965
531.10802371,-0.0021113708876043884,0.0021113708876043884,0.9725784437873763,0.20197500776149288,-0.44941629672442107,0.016157891522102195
531.33387841,-0.002154179287634891,0.002154179287634891,0.9712858060956829,0.18542760249764473,-0.4306130542582804,0.01738281982113802
531.5597463,-0.002280141150846772,0.002280141150846772,0.9670638769286466,0.17436730678978724,-0.4175731155016894,0.01910219935381011
531.78562738,-0.002226491023128895,0.002226491023128895,0.962677662139271,0.14335370496093985,-0.3786207930911083,0.02095453305446457
532.01152163,-0.0020353478164361035,0.0020353478164361035,0.956139490221588,0.1066558349736785,-0.32658204937454616,0.022678611309152417
532.23742906,-0.0017561456710329143,0.0017561456710329143,0.949861258049008,0.07324702679579108,-0.27064187923488686,0.02404962232602982
532.46334967,-0.0014805682631707003,0.0014805682631707003,0.9417976862997062,0.050281940980583646,-0.22423635071188536,0.024773108026453796
